# <d> <decoded> <add_defects> <primal> <dual> <simple_match> <complex_match> <potential speedup> <max potential>
3 2.53200e-07 4.73267e-08 2.47481e-08 7.14418e-08 7.14319e-09 8.62024e-09 1.023e+01 2.937e+01 
5 7.85207e-07 1.84960e-07 1.43103e-07 3.18132e-07 4.05329e-08 4.94299e-08 5.487e+00 1.589e+01 
7 2.10825e-06 5.48153e-07 4.24952e-07 9.19416e-07 1.22948e-07 1.52603e-07 4.961e+00 1.382e+01 
9 4.69594e-06 1.35514e-06 9.17129e-07 2.11552e-06 2.74637e-07 3.44989e-07 5.120e+00 1.361e+01 
11 8.66867e-06 2.60908e-06 1.64545e-06 4.02877e-06 5.29850e-07 6.20233e-07 5.268e+00 1.398e+01 
13 1.43817e-05 4.52789e-06 2.66943e-06 6.74656e-06 8.89540e-07 1.02483e-06 5.388e+00 1.403e+01 
15 2.20518e-05 7.15794e-06 4.01714e-06 1.04062e-05 1.38337e-06 1.56835e-06 5.489e+00 1.406e+01 
17 3.30589e-05 1.11746e-05 5.84467e-06 1.54948e-05 2.06364e-06 2.30384e-06 5.656e+00 1.435e+01 
19 4.97158e-05 1.69457e-05 8.32705e-06 2.38918e-05 2.98999e-06 3.30211e-06 5.970e+00 1.506e+01 
21 6.40270e-05 2.18494e-05 1.08848e-05 3.07450e-05 3.90693e-06 4.36280e-06 5.882e+00 1.468e+01 
23 8.53495e-05 2.92339e-05 1.42039e-05 4.13426e-05 5.14995e-06 5.69303e-06 6.009e+00 1.499e+01 
25 1.12716e-04 3.95249e-05 1.83119e-05 5.42901e-05 6.64138e-06 7.39519e-06 6.155e+00 1.524e+01 
27 1.46493e-04 5.31290e-05 2.31531e-05 6.95976e-05 8.44388e-06 9.36243e-06 6.327e+00 1.565e+01 
29 1.82844e-04 6.69869e-05 2.86587e-05 8.65609e-05 1.04659e-05 1.16300e-05 6.380e+00 1.572e+01 
31 2.28900e-04 8.53085e-05 3.50385e-05 1.07877e-04 1.27987e-05 1.42525e-05 6.533e+00 1.606e+01 
33 2.83713e-04 1.08286e-04 4.23806e-05 1.32348e-04 1.55100e-05 1.72546e-05 6.694e+00 1.644e+01 
35 3.47465e-04 1.36326e-04 5.05758e-05 1.59843e-04 1.85452e-05 2.05942e-05 6.870e+00 1.687e+01 
37 4.20263e-04 1.68920e-04 6.01956e-05 1.90400e-04 2.19753e-05 2.47576e-05 6.982e+00 1.698e+01 
39 5.00904e-04 2.04525e-04 7.07403e-05 2.24858e-04 2.58384e-05 2.90653e-05 7.081e+00 1.723e+01 
41 5.97690e-04 2.49601e-04 8.24932e-05 2.64780e-04 3.00665e-05 3.40824e-05 7.245e+00 1.754e+01 
43 7.08442e-04 3.00658e-04 9.55623e-05 3.11324e-04 3.48312e-05 3.94670e-05 7.413e+00 1.795e+01 
45 8.30562e-04 3.58041e-04 1.09767e-04 3.61871e-04 4.01229e-05 4.52543e-05 7.567e+00 1.835e+01 
47 9.58477e-04 4.17941e-04 1.24170e-04 4.15453e-04 4.57132e-05 5.06208e-05 7.719e+00 1.893e+01 
49 1.11700e-03 4.91083e-04 1.41353e-04 4.83618e-04 5.20993e-05 5.76655e-05 7.902e+00 1.937e+01 
51 1.27508e-03 5.62870e-04 1.59841e-04 5.51355e-04 5.89173e-05 6.52542e-05 7.977e+00 1.954e+01 
